id,error
718,12169.961358717745
719,12891.67600174069
720,13329.416672403066
721,13326.361342051146
722,12880.933672843377
723,12149.343135001074
724,11318.024547458817
725,10512.493492407948
726,9792.781209238863
727,9180.017098014741
728,8677.865043152235
729,8283.803737474374
730,7994.019860976932
731,7805.208447020593
732,7715.063600628185
733,7722.303517231095
734,7826.614151028287
735,8028.656919706021
736,8330.135996812329
737,8733.76852409253
738,9242.781574596174
739,9859.117098718913
740,10578.636147927446
741,11380.149003548939
742,12169.46207212489
743,12888.541582487833
744,13322.33369658027
745,13314.975152614817
746,12866.149432080305
747,12132.726613747293
748,11301.006872218575
749,10496.02127147044
750,9777.34060082723
751,9165.776973705551
752,8664.810764366419
753,8271.836143383858
754,7983.022216702451
755,7795.09100111987
756,7705.788773278505
757,7713.8959910469375
758,7819.156073030137
759,8022.271205108765
760,8324.957005431728
761,8729.902195755176
762,9240.252198075625
763,9857.79863142349
764,10578.161576408733
765,11379.804204839013
766,12168.291465094113
767,12884.780235922208
768,13314.634979326474
769,13302.965879829197
770,12850.742482732292
771,12115.507017458232
772,11283.416652531838
773,10479.002175018617
774,9761.362509966935
775,9150.985407312588
776,8651.166378749496
777,8259.216799225254
778,7971.293863125805
779,7784.153239157908
780,7695.601973714389
781,7704.491134946664
782,7810.630326903304
783,8014.768771704564
784,8318.637802096375
785,8724.899468012693
786,9236.617477454669
787,9855.429761421303
788,10576.709762462931
789,11378.566947103669
790,12166.35812006781
791,12880.326145286286
792,13306.300664993
793,13290.376404919081
794,12834.824398308487
795,12097.862402027946
796,11265.490419939282
797,10461.72227168306
798,9745.171792833999
799,9135.996346182612
800,8637.304896034479
801,8246.329202388448
802,7959.219549365927
803,7772.772717284187
804,7684.86551046003
805,7694.429851861112
806,7801.350606534604
807,8006.431730086633
808,8311.426669389273
809,8718.9740493689
810,9232.056503961356
811,9852.156248683788
812,10574.397241671117
813,11376.529671691334
814,12163.513231014453
815,12875.13677158138
816,13297.45331542368
817,13277.511232284704
818,12818.849399018598
819,12080.339392972495
820,11247.816798323089
821,10444.778454056388
822,9729.3569157121
823,9121.383601667834
824,8623.785753598358
825,8233.719214200766
826,7947.331396391994
827,7761.465766915736
828,7674.074725334344
829,7684.177692869573
830,7791.741646625215
831,7997.63295782535
832,8303.633338616895
833,8712.364138525274
834,9226.732006725892
835,9848.070047741385
836,10571.259572489127
837,11373.700649152765
838,12160.242349376505
839,12869.713582803168
840,13288.62295908363
841,13264.934128129276
842,12803.411342402991
843,12063.553513641247
844,11231.02542263851
845,10428.810998589122
846,9714.56918945912
847,9107.81134303839
848,8611.287387677503
849,8222.080475073513
850,7936.339087479302
851,7750.956652461177
852,7663.965922955221
853,7674.478930351763
854,7782.551651270904
855,7989.119219011541
856,8295.998109735847
857,8705.798641247553
858,9221.358369625415
859,9843.867803625211
860,10567.973476107038
861,11370.736530668946
862,12156.907516927138
863,12864.362960783508
864,13280.059268636496
865,13252.84808153902
866,12788.682631916292
867,12047.665152545374
868,11215.28055292171
869,10414.001760477542
870,9701.017490355203
871,9095.522960814977
872,8600.092940914907
873,8211.740337863059
874,7926.615830951196
875,7741.664484943311
876,7655.001859714778
877,7665.836661608292
878,7774.318085752086
879,7981.454884322693
880,8289.104238451475
881,8699.870714819843
882,9216.527950253481
883,9840.128956135548
884,10565.092604829779
885,11368.148525696797
886,12153.958736174956
887,12859.454881690139
888,13272.04197684381
889,13241.445270160142
890,12774.785291570224
891,12032.749807636574
892,11200.635685696963
893,10400.401845726752
894,9688.766789281459
895,9084.61003193861
896,8590.331824150924
897,8202.873978461059
898,7918.388322693513
899,7733.871510987761
900,7647.521839605122
901,7658.645569623594
902,7767.486821268231
903,7975.131457777033
904,8283.48035128465
905,8695.136066753794
906,9212.81124272755
907,9837.42533070591
908,10563.17246923691
909,11366.454479822196
910,12151.849883531739
911,12855.353557670653
912,13264.825252638055
913,13230.866361715873
914,12761.76236697223
915,12018.77889598825
916,11187.017007099048
917,10387.915614840804
918,9677.719876785708
919,9074.990513201752
920,8581.950418377492
921,8195.467169747562
922,7911.691415803913
923,7727.668046683027
924,7641.675772090293
925,7653.116228530353
926,7762.328264767746
927,7970.47472097918
928,8279.500927693789
929,8692.008483632146
930,9210.650598072594
931,9836.213254849887
932,10562.665064908268
933,11366.07977397922
934,12150.954310797255
935,12852.34658761236
936,13258.585374718987
937,13221.169057908808
938,12749.563575084232
939,12005.617154361633
940,11174.229619752956
941,10376.312875563835
942,9667.63076213251
943,9066.419319800521
944,8574.718383238598
945,8189.317100480423
946,7906.359764515377
947,7722.9345561514
948,7637.395825756803
949,7649.236903425192
950,7758.887680713854
951,7967.585194857872
952,8277.318065815018
953,8690.685529454826
954,9210.279738115189
955,9836.750375423164
956,10563.837296709547
957,11367.279993484673
3400,8521.797476386055
3401,9748.823026702214
3402,10862.766098680066
3403,11231.705831634972
3404,9825.829845774448
3405,7057.594053182015
3406,4879.569079231174
3407,3706.7351394982643
3408,3150.8157362905545
3409,2868.6410467435744
3410,2669.5753791386014
3411,2475.335300876836
3412,2269.6726865352334
3413,2072.7159550761185
3414,1932.995524391375
3415,1919.6623895475946
3416,2091.6903753307934
3417,2460.7179646950653
3418,2998.6436925994576
3419,3671.2723033678444
3420,4454.940418681317
3421,5337.52712918963
3422,6315.5052420182255
3423,7390.542565973532
3424,8592.347102631344
3425,9823.794012266404
3426,10938.956390832805
3427,11302.259832821983
3428,9881.96018089115
3429,7101.013913399092
3430,4922.919476085595
3431,3757.8137156466737
3432,3208.628309506188
3433,2928.617461980652
3434,2727.9265093371914
3435,2529.8007217166382
3436,2319.0705014421983
3437,2116.5502746972074
3438,1971.3176710082282
3439,1953.2773486585477
3440,2122.595256199313
3441,2491.8264018616132
3442,3032.693541893506
3443,3710.1946289799785
3444,4499.888802907431
3445,5389.081340163497
3446,6373.820608604051
3447,7455.4026763244
3448,8662.914341629441
3449,9898.87974225088
3450,11015.425967589132
3451,11373.350659033842
3452,9938.974647367191
3453,7145.654580187382
3454,4967.64250796657
3455,3810.08113727842
3456,3267.227244397118
3457,2989.032423708441
3458,2786.5136880844007
3459,2584.4119761190536
3460,2368.592528275628
3461,2160.527350884685
3462,2009.819517742589
3463,1987.0964268250118
3464,2153.6838730818827
3465,2523.058727257578
3466,3066.799108008895
3467,3749.1152138787697
3468,4544.7941967830975
3469,5440.569421414674
3470,6432.0666564391595
3471,7520.213926108481
3472,8733.48366249572
3473,9974.06422670812
3474,11092.159638328676
3475,11444.965126911773
3476,9996.858802704024
3477,7191.492789621305
3478,5013.697123000517
3479,3863.4800317982686
3480,3326.5585219139853
3481,3049.846188449236
3482,2845.309067266465
3483,2639.1477466565675
3484,2418.220555580326
3485,2204.630195159738
3486,2048.4840685506224
3487,2021.103349970526
3488,2184.9422630876024
3489,2554.403190105995
3490,3100.9495564106437
3491,3788.023040086804
3492,4589.6449541315205
3493,5491.978326549509
3494,6490.228136338991
3495,7584.959214862885
3496,8803.86864723349
3497,10049.166651779036
3498,11168.965737116361
3499,11516.858502265068
3500,10055.25494512596
3501,7237.984693647796
3502,5060.447058280054
3503,3917.4271792129625
3504,3386.17750234443
3505,3110.7671057043704
3506,2904.153841974508
3507,2693.9594566756264
3508,2467.997864453523
3509,2248.9755427536666
3510,2087.4752670243683
3511,2055.467354283881
3512,2216.496918369426
3513,2585.914701636857
3514,3135.1251459802115
3515,3826.834472231416
3516,4634.308138341024
3517,5543.140891822325
3518,6548.118452721345
3519,7649.444648319755
3520,8874.328458815047
3521,10124.403170680494
3522,11245.997289606403
3523,11589.104962287161
3524,10114.186893873195
3525,7285.243455300744
3526,5108.073662627722
3527,3972.06483510012
3528,3446.138110744518
3529,3171.7520807829183
3530,2962.9125256546417
3531,2748.629037137878
3532,2517.6371161859797
3533,2293.229592762906
3534,2126.452591775771
3535,2089.9031248493334
3536,2248.1772259710983
3537,2617.5558848302126
3538,3169.404526780648
3539,3865.716114097138
3540,4679.0115637783665
3541,5594.323013683788
3542,6606.0205636523915
3543,7713.9505366324975
3544,8944.837449249291
3545,10199.744008879286
3546,11323.222659827965
3547,11661.675043355483
3548,10173.629216757216
3549,7333.242360723714
3550,5156.538949208717
3551,4027.3467663880056
3552,3506.4012710325255
3553,3232.774504210541
3554,3021.5676573244
3555,2803.143423286224
3556,2567.127065602487
3557,2337.3804914046227
3558,2165.402705889266
3559,2124.396130386026
3560,2279.9688387346273
3561,2649.3138887410128
3562,3203.7756550055615
3563,3904.6555352724668
3564,4723.741569522128
3565,5645.508725810742
3566,6663.91523439068
3567,7778.453481106897
3568,9015.36744371288
3569,10275.157034628839
3570,11400.606424195152
3571,11734.533059509939
3572,10233.54933220015
3573,7381.947935516246
3574,5205.800420337444
3575,4083.225411366331
3576,3566.9284768782823
3577,3293.8087423092193
3578,3080.1020169610456
3579,2857.48987319658
3580,2616.4563153015292
3581,2381.416175575676
3582,2204.3118711415846
3583,2158.9313494679295
3584,2311.8574104792337
3585,2681.1760998016184
3586,3238.227094663148
3587,3943.6411456305714
3588,4768.484896808645
3589,5696.682295485959
3590,6721.783411778507
3591,7842.929987259135
3592,9085.88955692402
3593,10350.607118363645
3594,11478.108273791187
3595,11807.638345276135
3596,10293.908861012833
3597,7431.320482990845
3598,5255.811733692567
3599,4139.652455989737
3600,3627.6822762153506
3601,3354.830439366291
3602,3138.499711922434
3603,2911.6562125553683
3604,2665.6138459729523
3605,2425.3253571084356
3606,2243.1672333634806
3607,2193.4947413765963
3608,2343.829747666013
3609,2713.131256061828
3610,3272.748769628297
3611,3982.6627600520133
3612,4813.230293269953
3613,5747.829970290508
3614,6779.607228082781
3615,7907.35740321373
3616,9156.373303354241
3617,10426.056494229424
3618,11555.683337973907
3619,11880.942237919187
3620,10354.65930753212
3621,7481.3102609206435
3622,5306.517777608111
3623,4196.5750494862505
3624,3688.6238463744103
3625,3415.815334525018
3626,3196.745637975082
3627,2965.631989881339
3628,2714.5909262609434
3629,2469.0989373946873
3630,2281.9586362956725
3631,2228.0754956406768
3632,2375.875575820561
3633,2745.1704638012484
3634,3307.332497420198
3635,4021.7116699209423
3636,4857.967214298848
3637,5798.938318093001
3638,6837.369644916624
3639,7971.71288587881
3640,9226.791564470595
3641,10501.469598922646
3642,11633.286982323158
3643,11954.394484582452
3644,10415.749425525515
3645,7531.865186744001
3646,5357.8645065320725
3647,4253.943252216717
3648,3749.717467495773
3649,3476.7414501465973
3650,3254.82582876041
3651,3019.4067975322077
3652,2763.3780158042846
3653,2512.7268371780897
3654,2320.674710906054
3655,2262.661472138329
3656,2407.9843452440873
3657,2777.2858821782834
3658,3341.972445768289
3659,4060.782619423187
3660,4902.68952715063
3661,5849.998919666304
3662,6895.058335395556
3663,8035.9791830816375
3664,9297.119788070211
3665,10576.811858646297
3666,11710.874310424822
3667,12027.943383537646
3668,10477.12548608121
3669,7582.930951308137
3670,5409.796821196792
3671,4311.708707991921
3672,3810.930315721623
3673,3537.589585976189
3674,3312.7290500609543
3675,3072.9726147574324
3676,2811.967749815809
3677,2556.2008999901996
3678,2359.3059512251916
3679,2297.242638908212
3680,2440.1474357074967
3681,2809.4716078126635
3682,3376.664791165049
3683,4099.872577579612
3684,4947.393670551227
3685,5901.0061678159145
3686,6952.66410945453
3687,8100.141574334028
3688,9367.335744417505
3689,10652.051847503244
3690,11788.402736563057
3691,12101.53726073244
3692,10538.732717518415
3693,7634.452298469063
3694,5462.260296415232
3695,4369.825694944794
3696,3872.232985677786
3697,3598.343989527988
3698,3370.4468369468304
3699,3126.324251510531
3700,2860.355385439633
3701,2599.5153206759273
3702,2397.8450838912886
3703,2331.8110098001525
3704,2472.3581836543044
3705,2841.723651473029
3706,3411.407973209038
3707,4138.981129190911
3708,4992.078674745493
3709,5951.957369354447
3710,7010.181145470354
3711,8164.189145356679
3712,9437.42117233036
3713,10727.16111946821
3714,11865.83202466156
3715,12175.127255182175
3716,10600.517991797842
3717,7686.374395855813
3718,5515.202259124782
3719,4428.251821430674
3720,3933.5998983182926
3721,3658.9924463550446
3722,3427.9742103780964
3723,3179.459211013204
3724,2908.5386308474326
3725,2642.6669947501996
3726,2436.2873732973976
3727,2366.360863275788
3728,2504.6119867290167
3729,2874.0400131995975
3730,3446.2023576997626
3731,4178.10996633343
3732,5036.746612021069
3733,6002.8533740218245
3734,7067.6070969756565
3735,8228.115068210636
3736,9507.362284635727
3737,10802.116163336133
3738,11943.126729334643
3739,12248.667480179678
3740,10662.430130742103
3741,7738.645111077567
3742,5568.5727841285025
3743,4486.948608160015
3744,3995.0095952655706
3745,3719.526483466938
3746,3485.309490682234
3747,3232.378401726796
3748,2956.5184313567984
3749,2685.655253353307
3750,2474.6303857585963
3751,2400.8889057199017
3752,2536.906355954723
3753,2906.4206159019877
3754,3481.050342419887
3755,4217.263096395698
3756,5081.40186916029
3757,6053.69778402633
3758,7124.9437857375415
3759,8291.916704034706
3760,9577.150139039175
3761,10876.899088093649
3762,12020.257258047535
3763,12322.117659581483
3764,10724.422534118417
3765,7791.215403455124
3766,5622.326316965775
3767,4545.882274206066
3768,4056.4449463088363
3769,3779.941458700308
3770,3542.4543660577947
3771,3285.085742795372
3772,3004.298550203878
3773,2728.4825112854446
3774,2512.8745574483287
3775,2435.3939671599182
3776,2569.2407194593598
3777,2938.867148256994
3778,3515.956120815289
3779,4256.446562580677
3780,5126.051391915722
3781,6104.497342526459
3782,7182.196282776752
3783,8355.596425717828
3784,9646.781770591697
3785,10951.498065690914
3786,12097.20069080531
3787,12395.444270253969
3788,10786.454459703791
3789,7844.0414677221615
3790,5676.4218631829835
3791,4605.023828215571
3792,4117.89315942878
3793,3840.236255689997
3794,3599.4138406173715
3795,3337.588138217077
3796,3051.8855779897235
3797,2771.1537683090132
3798,2551.022746382525
3799,2469.8773164520862
3800,2601.6164510487183
3801,2971.382924420236
3802,3550.9253758146288
3803,4295.6680727339535
3804,5170.704281966618
3805,6155.261535591742
3806,7239.373304575939
3807,8419.160506841106
3808,9716.259123722528
3809,11025.908643450914
3810,12173.942568605598
3811,12468.62141505264
3812,10848.492071670853
3813,7897.085713487258
3814,5730.824249140197
3815,4664.349519233878
3816,4179.345742708421
3817,3900.413366469971
3818,3656.19565326825
3819,3389.8953269903345
3820,3099.2888228324387
3821,2813.676530489377
3822,2589.0801588010227
3823,2504.3422170055137
3824,2634.036554400448
3825,3003.972537235475
3826,3585.96516848014
3827,4334.936961132198
3828,5215.371303824204
3829,6206.002078438687
3830,7296.486714507757
3831,8482.619545887914
3832,9785.589729932834
3833,11100.132519798975
3834,12250.47585987502
3835,12541.632629604988
3836,10910.510336950036
3837,7950.317491362884
3838,5785.50452321473
3839,4723.840836768878
3840,4240.798224218669
3841,3960.478327203089
3842,3712.810377913494
3843,3442.0191342317253
3844,3146.519562173341
3845,2856.0606277568954
3846,2627.0541827373463
3847,2538.7937429857056
3848,2666.505424221016
3849,3036.6416093953458
3850,3621.083267472882
3851,4374.263285477196
3852,5260.064847327605
3853,6256.7329424896825
3854,7353.550892673345
3855,8545.987855364236
3856,9854.786170347079
3857,11174.178289364261
3858,12326.802084129295
3859,12614.46979911831
3860,10972.492282888526
3861,8003.714443637721
3862,5840.44011559072
3863,4783.4843331593775
3864,4302.249782979815
3865,4020.439302771918
3866,3769.2706237775606
3867,3493.973594378565
3868,3193.5912564986656
3869,2898.3174123550716
3870,2664.9536686079587
3871,2573.2385295608206
3872,2699.028559564975
3873,3069.3964359370584
3874,3656.287960822107
3875,4413.657697981859
3876,5304.797783188985
3877,6307.469029977384
3878,7410.582743894015
3879,8609.282698254141
3880,9923.86532969527
3881,11248.06078209213
3882,12402.93083762275
3883,12687.134217837613
3884,11034.430180684958
3885,8057.261670885593
3886,5895.615327697875
3887,4843.2714908840435
3888,4363.702767765407
3889,4080.3065859585627
3890,3825.5905564834898
3891,3545.7740298339577
3892,3240.5186317679513
3893,2940.4599433510944
3894,2702.78908876657
3895,2607.6841314493863
3896,2731.6120998143883
3897,3102.2436082996783
3898,3691.5875993225245
3899,4453.130897282864
3900,5349.58334885522
3901,6358.22607882925
3902,7467.60013348658
3903,8672.524262345207
3904,9992.84845708498
3905,11321.800149383494
3906,12478.878988481669
3907,12759.636006248711
3908,11096.32520380263
3909,8110.952424235875
3910,5951.020385951825
3911,4903.197977523813
3912,4425.162043299737
3913,4140.091755835211
3914,3881.7853696069556
3915,3597.4365646458336
3916,3287.3172398323627
3917,2982.502062468264
3918,2740.5717069643442
3919,2642.139025526118
3920,2764.2626266640386
3921,3135.189704337962
3922,3726.990147645121
3923,4492.693088564206
3924,5394.434505611376
3925,6409.019910555563
3926,7524.621770164615
6140,25000.22900182725
6141,24919.079020312558
6142,22863.994520907105
6143,20181.223706841563
6144,17732.8389892204
6145,15711.110565552022
6146,14081.279789168248
6147,12776.305939546086
6148,11742.461801382868
6149,10944.067032505258
6150,10359.928793570376
6151,9978.943882138243
6152,9796.300674135524
6153,9810.628977966791
6154,10022.4003406394
6155,10433.83529013153
6156,11050.316981895803
6157,11883.04240393301
6158,12952.556843365222
6159,14292.705674977055
6160,15953.332991759113
6161,17993.85713398958
6162,20434.831525618927
6163,23061.870350997382
6164,25045.747133938257
6165,24914.288784040837
6166,22820.317806289837
6167,20121.76145539283
6168,17672.940476321324
6169,15657.383769692804
6170,14035.286084947867
6171,12737.11863950069
6172,11708.06986294854
6173,10912.193993333272
6174,10328.59147647173
6175,9946.88329535985
6176,9763.300901022538
6177,9777.679947659753
6178,9991.667118710018
6179,10408.445373564657
6180,11034.035938079456
6181,11879.919855661576
6182,12966.57733574154
6183,14327.400598104572
6184,16011.186280825468
6185,18075.120957215608
6186,20534.935962598356
6187,23166.467336939724
6188,25127.440554046912
6189,24947.26627688233
6190,22812.88860338762
6191,20096.34775271295
6192,17644.987537504265
6193,15633.649770450887
6194,14017.366612163574
6195,12723.976940184126
6196,11697.442748980795
6197,10901.42025598742
6198,10315.19574696502
6199,9929.052500687356
6200,9740.269578951433
6201,9749.968293058857
6202,9961.103873684648
6203,10377.96602789306
6204,11007.318724631168
6205,11860.956547177657
6206,12959.238737177873
6207,14334.967364900576
6208,16035.702291974956
6209,18116.245635393225
6210,20587.71110267281
6211,23217.624568523697
6212,25157.488224465564
6213,24931.951808053498
6214,22765.20263018148
6215,20040.876521076985
6216,17597.274834585118
6217,15599.669940827707
6218,13997.68544107081
6219,12716.460580025923
6220,11698.660487183617
6221,10907.417823190814
6222,10322.020850827537
6223,9933.207521576394
6224,9739.131280366304
6225,9742.122351710956
6226,9946.501021644126
6227,10357.830998518011
6228,10983.825883311767
6229,11836.747690480375
6230,12936.852825937585
6231,14316.18074698542
6232,16020.662175102292
6233,18102.171335531893
6234,20566.994005064433
6235,23176.297604146577
6236,25083.940631601967
6237,24818.680296121227
